Date,Open,High,Low,Close,Adj Close,Volume
2023-11-20,127.44999694824219,127.6500015258789,126.43000030517578,127.31999969482422,125.82023620605469,213900
2023-11-21,127.45999908447266,128.3000030517578,127.19999694824219,127.91000366210938,126.40328979492188,160600
2023-11-22,128.4499969482422,129.1999969482422,127.36000061035156,128.57000732421875,127.05551147460938,174800
2023-11-24,128.97000122070312,128.97000122070312,128.10000610351562,128.52999877929688,127.0159912109375,65900
2023-11-27,127.81999969482422,128.3000030517578,126.8499984741211,127.0,125.50399780273438,367500
2023-11-28,127.0,127.01000213623047,125.48999786376953,125.61000061035156,124.13038635253906,218000
2023-11-29,125.63999938964844,126.4000015258789,124.91999816894531,125.37000274658203,123.8932113647461,331800
2023-11-30,125.44999694824219,127.12999725341797,124.80999755859375,126.88999938964844,125.39530181884766,301000
2023-12-01,126.41999816894531,128.5399932861328,126.41999816894531,128.10000610351562,126.59105682373047,218300
2023-12-04,127.44999694824219,128.8800048828125,126.88999938964844,128.4199981689453,126.90727233886719,192000
2023-12-05,128.25,128.69000244140625,125.87999725341797,125.98999786376953,124.50589752197266,178000
2023-12-06,126.38999938964844,127.30000305175781,125.87999725341797,126.37000274658203,124.88143157958984,179500
2023-12-07,126.23999786376953,127.11000061035156,125.98999786376953,126.48999786376953,125.00000762939453,254000
2023-12-08,126.36000061035156,127.5,125.62000274658203,127.31999969482422,125.82023620605469,265800
2023-12-11,127.26000213623047,127.68000030517578,126.33999633789062,127.56999969482422,126.06729888916016,338000
2023-12-12,127.6500015258789,128.10000610351562,126.68000030517578,127.4800033569336,125.97835540771484,210300
2023-12-13,127.18000030517578,128.99000549316406,127.18000030517578,128.58999633789062,127.07526397705078,425000
2023-12-14,129.0800018310547,130.00999450683594,126.87999725341797,127.4000015258789,125.89929962158203,412900
2023-12-15,127.16000366210938,128.5800018310547,125.97000122070312,125.9800033569336,124.49603271484375,713000
2023-12-18,126.70999908447266,127.20999908447266,125.87999725341797,127.05000305175781,125.55342102050781,240500
2023-12-19,127.70999908447266,128.1300048828125,126.02999877929688,126.2300033569336,124.74307250976562,659100
2023-12-20,126.0199966430664,126.94000244140625,125.45999908447266,125.56999969482422,124.09085083007812,346400
2023-12-21,126.23999786376953,126.23999786376953,124.8499984741211,125.91000366210938,124.42684173583984,421900
2023-12-22,126.4000015258789,127.04000091552734,126.12000274658203,126.2699966430664,124.78260040283203,312200
2023-12-26,126.13999938964844,126.87000274658203,125.58999633789062,125.83000183105469,124.34778594970703,274700
2023-12-27,126.12000274658203,126.47000122070312,125.02999877929688,125.27999877929688,123.80426025390625,283100
2023-12-28,124.9800033569336,125.80000305175781,124.4000015258789,125.19999694824219,123.72521209716797,343600
2023-12-29,125.19000244140625,125.36000061035156,123.55999755859375,123.62000274658203,122.16382598876953,313500
2024-01-02,122.61000061035156,124.0999984741211,122.29000091552734,122.87999725341797,121.43253326416016,313100
2024-01-03,125.1500015258789,127.26000213623047,123.1500015258789,125.36000061035156,123.8833236694336,531700
2024-01-04,125.18000030517578,125.91999816894531,124.12999725341797,124.22000122070312,122.75675201416016,353300
2024-01-05,123.77999877929688,124.37000274658203,122.98999786376953,124.19999694824219,122.73698425292969,423000
2024-01-08,124.06999969482422,125.16000366210938,122.37000274658203,124.3499984741211,122.88522338867188,352400
2024-01-09,123.70999908447266,124.63999938964844,122.97000122070312,124.62999725341797,123.16192626953125,250300
2024-01-10,124.45999908447266,125.41999816894531,124.2300033569336,125.19000244140625,123.71533203125,279600
2024-01-11,125.37999725341797,126.97000122070312,124.94000244140625,126.83999633789062,125.34588623046875,323100
2024-01-12,127.88999938964844,127.97000122070312,125.91999816894531,126.43000030517578,124.94071197509766,231700
2024-01-16,125.87999725341797,126.81999969482422,125.51000213623047,126.80999755859375,125.31623840332031,257500
2024-01-17,125.94000244140625,127.2699966430664,125.88999938964844,126.69000244140625,125.1976547241211,336900
2024-01-18,127.31999969482422,130.00999450683594,126.30999755859375,129.13999938964844,127.61880493164062,444200
2024-01-19,129.7100067138672,131.4600067138672,128.5399932861328,130.8000030517578,129.25924682617188,418000
2024-01-22,130.89999389648438,131.80999755859375,130.55999755859375,131.19000244140625,129.6446533203125,266200
2024-01-23,131.8000030517578,131.85000610351562,130.3300018310547,131.8300018310547,130.277099609375,217800
2024-01-24,132.1199951171875,132.2899932861328,130.5399932861328,130.77999877929688,129.23947143554688,294400
2024-01-25,132.02999877929688,132.3800048828125,130.3800048828125,131.25,129.7039337158203,332300
2024-01-26,131.67999267578125,132.58999633789062,131.39999389648438,131.6999969482422,130.1486358642578,219900
2024-01-29,131.0500030517578,132.58999633789062,130.49000549316406,132.25,130.69215393066406,187800
2024-01-30,132.02999877929688,133.08999633789062,131.6300048828125,132.25,130.69215393066406,228400
2024-01-31,132.3699951171875,132.77000427246094,129.16000366210938,129.8800048828125,128.74923706054688,537500
2024-02-01,130.4600067138672,131.11000061035156,129.61000061035156,130.5,129.3638153076172,298800
2024-02-02,129.9600067138672,130.7100067138672,128.69000244140625,130.10000610351562,128.96731567382812,344800
2024-02-05,129.1300048828125,131.4499969482422,128.0500030517578,130.64999389648438,129.5125274658203,319500
2024-02-06,130.47999572753906,131.39999389648438,129.3000030517578,131.1300048828125,129.9883575439453,369700
2024-02-07,131.41000366210938,132.4199981689453,129.3699951171875,131.8000030517578,130.65252685546875,393000
2024-02-08,131.63999938964844,134.83999633789062,131.5399932861328,132.1199951171875,130.9697265625,620700
2024-02-09,132.11000061035156,139.2100067138672,131.50999450683594,138.9600067138672,137.75018310546875,650900
2024-02-12,139.16000366210938,140.47000122070312,137.50999450683594,137.61000061035156,136.41192626953125,491300
2024-02-13,136.69000244140625,137.3300018310547,134.97999572753906,135.92999267578125,134.74656677246094,275900
2024-02-14,136.25999450683594,137.4600067138672,135.1699981689453,137.1699981689453,135.97576904296875,335000
2024-02-15,137.1699981689453,137.80999755859375,134.57000732421875,135.0399932861328,133.86431884765625,471400
2024-02-16,135.3699951171875,138.0,135.0399932861328,137.5,136.30287170410156,453900
2024-02-20,137.13999938964844,140.13999938964844,136.9499969482422,139.69000244140625,138.47381591796875,373000
2024-02-21,139.0800018310547,140.11000061035156,138.99000549316406,140.0,138.7811279296875,276300
2024-02-22,140.47000122070312,142.4199981689453,140.07000732421875,141.47000122070312,140.2383270263672,295700
2024-02-23,141.97000122070312,142.0500030517578,140.60000610351562,141.36000061035156,140.12928771972656,190300
2024-02-26,141.5,142.05999755859375,140.8000030517578,141.9199981689453,140.68441772460938,199200
2024-02-27,141.9199981689453,142.17999267578125,139.8000030517578,140.30999755859375,139.08840942382812,244600
2024-02-28,139.64999389648438,141.24000549316406,139.3300018310547,140.41000366210938,139.18756103515625,189600
2024-02-29,140.6300048828125,141.6300048828125,139.8300018310547,140.4600067138672,139.2371368408203,250600
2024-03-01,139.8800048828125,140.7899932861328,139.55999755859375,140.2899932861328,139.06858825683594,151400
2024-03-04,140.69000244140625,142.1199951171875,140.55999755859375,141.9600067138672,140.7240753173828,260300
2024-03-05,142.27000427246094,143.2100067138672,141.74000549316406,142.52000427246094,141.27919006347656,190200
2024-03-06,142.92999267578125,143.63999938964844,142.47999572753906,143.07000732421875,141.82440185546875,184000
2024-03-07,144.5,145.13999938964844,143.83999633789062,144.64999389648438,143.390625,250100
2024-03-08,144.7100067138672,145.07000732421875,142.97000122070312,143.08999633789062,141.84422302246094,185200
2024-03-11,142.7899932861328,143.3800048828125,141.97999572753906,142.74000549316406,141.4972686767578,226700
2024-03-12,142.8000030517578,142.85000610351562,141.47999572753906,142.41000366210938,141.17015075683594,242200
2024-03-13,143.0,143.0,140.92999267578125,141.16000366210938,139.93101501464844,336800
2024-03-14,141.36000061035156,141.6199951171875,140.36000061035156,140.92999267578125,139.70303344726562,235200
2024-03-15,140.0399932861328,142.41000366210938,139.74000549316406,141.0,139.7724151611328,599500
2024-03-18,140.92999267578125,141.3000030517578,138.92999267578125,139.25999450683594,138.0475616455078,299700
2024-03-19,138.8800048828125,140.32000732421875,138.8800048828125,139.50999450683594,138.29537963867188,253000
2024-03-20,139.6300048828125,140.07000732421875,139.13999938964844,139.97000122070312,138.7513885498047,220000
2024-03-21,140.30999755859375,141.60000610351562,139.3000030517578,141.13999938964844,139.9112091064453,255800
2024-03-22,142.00999450683594,142.4499969482422,141.0500030517578,141.58999633789062,140.35726928710938,276000
2024-03-25,141.1999969482422,144.0500030517578,141.1699981689453,142.9600067138672,141.71536254882812,316300
2024-03-26,142.8300018310547,144.30999755859375,142.6199951171875,143.1999969482422,141.95326232910156,314200
2024-03-27,143.6699981689453,145.14999389648438,143.6699981689453,144.66000366210938,143.40054321289062,218200
2024-03-28,144.82000732421875,145.35000610351562,143.64999389648438,143.88999938964844,142.6372528076172,247800
2024-04-01,143.7899932861328,143.7899932861328,142.1199951171875,142.2899932861328,141.05117797851562,204400
2024-04-02,141.83999633789062,141.83999633789062,140.38999938964844,140.6300048828125,139.4056396484375,202600
2024-04-03,140.6699981689453,141.19000244140625,139.8699951171875,140.8800048828125,139.65345764160156,258700
2024-04-04,141.8300018310547,142.75,140.97000122070312,141.75,140.51588439941406,403600
2024-04-05,141.3800048828125,142.75999450683594,140.9499969482422,141.72999572753906,140.49606323242188,288300
2024-04-08,141.6699981689453,142.3800048828125,140.38999938964844,140.50999450683594,139.2866668701172,312500
2024-04-09,140.4199981689453,141.10000610351562,139.36000061035156,140.30999755859375,139.08840942382812,242600
2024-04-10,138.97999572753906,140.22000122070312,138.4499969482422,139.39999389648438,138.18634033203125,200700
2024-04-11,139.25999450683594,140.0399932861328,138.4499969482422,139.1300048828125,137.918701171875,265300
2024-04-12,138.1699981689453,138.9499969482422,135.9600067138672,137.1999969482422,136.00550842285156,299200
2024-04-15,138.61000061035156,139.80999755859375,137.8300018310547,138.1999969482422,136.99679565429688,319600
2024-04-16,137.7899932861328,139.38999938964844,137.36000061035156,138.58999633789062,137.38339233398438,281700
2024-04-17,138.8800048828125,139.47999572753906,138.35000610351562,138.39999389648438,137.19503784179688,565400
2024-04-18,138.38999938964844,139.44000244140625,138.22000122070312,139.11000061035156,137.8988800048828,246600
2024-04-19,139.05999755859375,139.9199981689453,138.77000427246094,139.33999633789062,138.1268768310547,276600
2024-04-22,139.5500030517578,141.14999389648438,139.25,140.32000732421875,139.09832763671875,298800
2024-04-23,139.77000427246094,141.16000366210938,139.52000427246094,140.14999389648438,138.9298095703125,417200
2024-04-24,139.9499969482422,140.89999389648438,139.63999938964844,140.00999450683594,139.19825744628906,559200
2024-04-25,139.83999633789062,141.25,138.9199981689453,140.17999267578125,139.3672637939453,694400
2024-04-26,142.0,148.50999450683594,141.89999389648438,143.3300018310547,142.49900817871094,489500
2024-04-29,144.89999389648438,148.02000427246094,144.3699951171875,146.3800048828125,145.5313262939453,676700
2024-04-30,145.74000549316406,146.10000610351562,144.05999755859375,144.3800048828125,143.5429229736328,585100
2024-05-01,144.99000549316406,147.2100067138672,144.5800018310547,145.3800048828125,144.53712463378906,359600
2024-05-02,145.75999450683594,146.72999572753906,145.2899932861328,145.9199981689453,145.07398986816406,356500
2024-05-03,147.11000061035156,147.1300048828125,144.83999633789062,146.80999755859375,145.9588165283203,303300
2024-05-06,147.75999450683594,149.0800018310547,147.16000366210938,149.0399932861328,148.17588806152344,260200
2024-05-07,148.32000732421875,150.3800048828125,148.32000732421875,149.72000122070312,148.85195922851562,392900
2024-05-08,149.72000122070312,150.8699951171875,149.47999572753906,150.7899932861328,149.91574096679688,223500
2024-05-09,151.0,151.72999572753906,148.6300048828125,149.0800018310547,148.21566772460938,299100
2024-05-10,148.9499969482422,149.0,148.08999633789062,148.49000549316406,147.6291046142578,186300
2024-05-13,148.52999877929688,149.47999572753906,146.86000061035156,147.8699951171875,147.01268005371094,167500
2024-05-14,148.3000030517578,148.30999755859375,147.47000122070312,147.89999389648438,147.04249572753906,137600
2024-05-15,147.9600067138672,148.33999633789062,146.77000427246094,147.27999877929688,146.4261016845703,211100
2024-05-16,147.3699951171875,147.89999389648438,146.42999267578125,147.5399932861328,146.68458557128906,235500
2024-05-17,147.85000610351562,148.1699981689453,147.1300048828125,147.6699981689453,146.81382751464844,169500
2024-05-20,147.58999633789062,148.41000366210938,147.0399932861328,148.1699981689453,147.31094360351562,163400
2024-05-21,147.94000244140625,148.67999267578125,147.08999633789062,148.58999633789062,147.72850036621094,280400
2024-05-22,148.07000732421875,148.8300018310547,147.47000122070312,148.7899932861328,147.92733764648438,283300
2024-05-23,148.66000366210938,148.9499969482422,147.55999755859375,147.72000122070312,146.86355590820312,171700
2024-05-24,148.47999572753906,148.8300018310547,147.36000061035156,148.08999633789062,147.23141479492188,162300
2024-05-28,147.6199951171875,147.77999877929688,145.82000732421875,146.7100067138672,145.8594207763672,318400
2024-05-29,145.64999389648438,146.6999969482422,144.50999450683594,144.83999633789062,144.00025939941406,229700
2024-05-30,145.1300048828125,146.97999572753906,145.0,146.13999938964844,145.292724609375,328100
2024-05-31,146.08999633789062,147.8300018310547,145.9199981689453,147.69000244140625,146.83372497558594,358900
2024-06-03,148.5,148.5,146.27999877929688,148.16000366210938,147.30101013183594,266200
2024-06-04,147.64999389648438,148.38999938964844,146.6999969482422,148.19000244140625,147.33082580566406,287900
2024-06-05,147.72000122070312,148.1999969482422,147.0800018310547,147.9199981689453,147.06239318847656,229200
2024-06-06,148.00999450683594,148.00999450683594,145.39999389648438,145.9600067138672,145.11375427246094,197600
2024-06-07,145.77000427246094,146.3300018310547,145.4499969482422,145.5500030517578,144.7061309814453,179100
2024-06-10,144.8300018310547,145.80999755859375,143.99000549316406,145.58999633789062,144.7458953857422,125800
2024-06-11,144.91000366210938,145.74000549316406,144.35000610351562,145.5,144.6564178466797,147700
2024-06-12,146.24000549316406,146.30999755859375,144.07000732421875,145.8300018310547,144.98451232910156,221300
2024-06-13,145.88999938964844,146.52999877929688,145.02000427246094,145.8300018310547,144.98451232910156,232400
2024-06-14,145.08999633789062,145.3800048828125,143.67999267578125,144.75,143.9107666015625,141500
2024-06-17,144.8699951171875,146.67999267578125,144.57000732421875,146.3300018310547,145.4816131591797,303800
2024-06-18,146.47999572753906,147.69000244140625,146.47000122070312,146.69000244140625,145.8395233154297,219900
2024-06-20,146.66000366210938,147.52999877929688,145.6699981689453,145.80999755859375,144.96463012695312,199900
2024-06-21,145.8699951171875,147.13999938964844,145.30999755859375,146.85000610351562,145.99859619140625,444100
2024-06-24,147.22000122070312,148.22999572753906,146.6699981689453,146.72000122070312,145.86935424804688,182900
2024-06-25,146.7899932861328,146.8000030517578,144.5,144.86000061035156,144.02012634277344,194500
2024-06-26,144.25,144.7899932861328,142.9600067138672,143.7100067138672,142.87681579589844,192400
2024-06-27,143.8699951171875,143.8800048828125,142.27000427246094,143.8699951171875,143.03587341308594,377300
2024-06-28,143.77999877929688,144.32000732421875,140.08999633789062,140.80999755859375,139.9936065673828,435100
2024-07-01,141.3800048828125,141.47999572753906,138.38999938964844,138.5399932861328,137.7367706298828,306400
2024-07-02,138.47999572753906,140.5,137.75999450683594,140.39999389648438,139.5859832763672,259400
2024-07-03,140.8800048828125,141.39999389648438,140.57000732421875,141.22000122070312,140.4012451171875,143300
2024-07-05,140.99000549316406,141.44000244140625,139.72999572753906,140.89999389648438,140.08309936523438,207000
2024-07-08,141.64999389648438,142.5,141.5,141.50999450683594,140.68955993652344,249300
2024-07-09,140.86000061035156,141.27000427246094,139.75,140.0399932861328,139.2280731201172,238400
2024-07-10,140.75,141.6300048828125,140.57000732421875,141.2899932861328,140.4708251953125,142000
2024-07-11,141.1999969482422,143.3000030517578,140.75,142.08999633789062,141.2661895751953,244500
2024-07-12,143.41000366210938,145.49000549316406,143.41000366210938,144.58999633789062,143.751708984375,263900
2024-07-15,144.75999450683594,145.69000244140625,143.13999938964844,143.42999267578125,142.59841918945312,319900
2024-07-16,143.85000610351562,145.3000030517578,143.85000610351562,144.55999755859375,143.7218780517578,178800
2024-07-17,144.33999633789062,145.77000427246094,144.33999633789062,144.86000061035156,144.02012634277344,242300
2024-07-18,144.61000061035156,147.25,144.60000610351562,146.27999877929688,145.43190002441406,434200
2024-07-19,146.58999633789062,146.58999633789062,144.66000366210938,145.94000244140625,145.0938720703125,251200
2024-07-22,145.99000549316406,147.55999755859375,145.25,147.19000244140625,146.33663940429688,235700
2024-07-23,147.8699951171875,148.50999450683594,145.6699981689453,146.0399932861328,145.1932830810547,234500
2024-07-24,146.07000732421875,146.6300048828125,143.89999389648438,144.13999938964844,143.30430603027344,250600
2024-07-25,142.8300018310547,144.0500030517578,141.22000122070312,141.49000549316406,141.11021423339844,558100
2024-07-26,143.1300048828125,151.2899932861328,142.35000610351562,146.66000366210938,146.26634216308594,562800
2024-07-29,146.5800018310547,148.35000610351562,145.1699981689453,147.8000030517578,147.4032745361328,390900
2024-07-30,147.3800048828125,147.89999389648438,145.41000366210938,145.75,145.35877990722656,411000
2024-07-31,146.5,148.85000610351562,145.41000366210938,146.97999572753906,146.58547973632812,280600
2024-08-01,146.8800048828125,149.5399932861328,145.42999267578125,147.02999877929688,146.63534545898438,335300
2024-08-02,146.5800018310547,147.0,143.75,145.69000244140625,145.2989501953125,213500
2024-08-05,143.42999267578125,143.42999267578125,139.47999572753906,140.67999267578125,140.30238342285156,448500
2024-08-06,141.3300018310547,146.08999633789062,141.11000061035156,144.92999267578125,144.5409698486328,476000
2024-08-07,146.00999450683594,147.25999450683594,143.47000122070312,143.60000610351562,143.2145538330078,353600
2024-08-08,144.4600067138672,146.16000366210938,144.4600067138672,145.55999755859375,145.16929626464844,268600
2024-08-09,145.41000366210938,145.41000366210938,143.47000122070312,143.9499969482422,143.56361389160156,263200
2024-08-12,143.97000122070312,144.17999267578125,142.77000427246094,143.2899932861328,142.90538024902344,221100
2024-08-13,143.50999450683594,145.3000030517578,143.10000610351562,144.3699951171875,143.98248291015625,212000
2024-08-14,144.1300048828125,144.80999755859375,143.49000549316406,143.89999389648438,143.5137481689453,115700
2024-08-15,145.0,147.33999633789062,145.0,147.00999450683594,146.61538696289062,277500
2024-08-16,146.11000061035156,146.83999633789062,145.61000061035156,146.72000122070312,146.326171875,250600
2024-08-19,146.32000732421875,147.72999572753906,145.9199981689453,146.97000122070312,146.57550048828125,191200
2024-08-20,146.97999572753906,148.30999755859375,146.97999572753906,148.11000061035156,147.7124481201172,387200
2024-08-21,148.1699981689453,149.57000732421875,147.4600067138672,149.3300018310547,148.92916870117188,267300
2024-08-22,149.57000732421875,150.39999389648438,148.6699981689453,148.99000549316406,148.590087890625,200400
2024-08-23,149.66000366210938,150.52999877929688,149.44000244140625,150.44000244140625,150.03619384765625,221400
2024-08-26,150.67999267578125,152.6699981689453,150.13999938964844,150.16000366210938,149.75694274902344,235500
2024-08-27,150.00999450683594,151.5399932861328,149.83999633789062,151.1999969482422,150.7941436767578,208300
2024-08-28,150.92999267578125,151.97000122070312,150.92999267578125,151.5399932861328,151.13323974609375,249000
2024-08-29,152.5500030517578,152.91000366210938,151.2100067138672,152.27999877929688,151.87124633789062,187100
2024-08-30,152.1999969482422,153.44000244140625,151.63999938964844,153.19000244140625,152.77880859375,178500
2024-09-03,152.11000061035156,152.3800048828125,149.72999572753906,150.0399932861328,149.6372528076172,362400
2024-09-04,149.60000610351562,150.89999389648438,149.60000610351562,150.72999572753906,150.32540893554688,175800
2024-09-05,151.0800018310547,151.75999450683594,149.9499969482422,150.72000122070312,150.31544494628906,200600
2024-09-06,150.3800048828125,153.1199951171875,150.3800048828125,152.3800048828125,151.9709930419922,319100
2024-09-09,152.57000732421875,153.05999755859375,151.44000244140625,151.91000366210938,151.5022430419922,241500
2024-09-10,151.8699951171875,152.7899932861328,151.44000244140625,151.50999450683594,151.1033172607422,158100
2024-09-11,150.7899932861328,150.8800048828125,148.6300048828125,150.83999633789062,150.43511962890625,178000
2024-09-12,150.88999938964844,152.00999450683594,149.97000122070312,151.9600067138672,151.5521240234375,200400
2024-09-13,152.19000244140625,153.00999450683594,151.89999389648438,152.27999877929688,151.87124633789062,138600
2024-09-16,153.0399932861328,153.1699981689453,152.07000732421875,152.99000549316406,152.57936096191406,182900
2024-09-17,154.0,155.57000732421875,151.8699951171875,153.02999877929688,152.61923217773438,259900
2024-09-18,153.75999450683594,155.49000549316406,152.7100067138672,153.07000732421875,152.6591339111328,214200
2024-09-19,155.02000427246094,158.80999755859375,155.02000427246094,156.89999389648438,156.47885131835938,412400
2024-09-20,156.30999755859375,156.30999755859375,154.47999572753906,155.91000366210938,155.49151611328125,663300
2024-09-23,156.1699981689453,156.91000366210938,154.74000549316406,155.9600067138672,155.5413818359375,315800
2024-09-24,156.17999267578125,157.0800018310547,156.02999877929688,156.6300048828125,156.20957946777344,246200
2024-09-25,157.3000030517578,157.8699951171875,155.8699951171875,157.13999938964844,156.71820068359375,284100
2024-09-26,157.94000244140625,159.05999755859375,157.6999969482422,158.3800048828125,157.9548797607422,371600
2024-09-27,158.67999267578125,161.5500030517578,158.25999450683594,159.88999938964844,159.46083068847656,354300
2024-09-30,159.2899932861328,160.4199981689453,158.92999267578125,160.19000244140625,159.76002502441406,289800
2024-10-01,160.5399932861328,160.5399932861328,159.0500030517578,159.97000122070312,159.54061889648438,192200
2024-10-02,159.86000061035156,160.11000061035156,157.9600067138672,158.75,158.32388305664062,186900
2024-10-03,157.99000549316406,160.4600067138672,156.63999938964844,158.94000244140625,158.5133819580078,367000
2024-10-04,159.94000244140625,161.47000122070312,159.3300018310547,160.5800018310547,160.1489715576172,350500
2024-10-07,159.38999938964844,159.63999938964844,158.00999450683594,158.69000244140625,158.26405334472656,223300
2024-10-08,158.27999877929688,159.02000427246094,157.10000610351562,158.6699981689453,158.2440948486328,205900
2024-10-09,158.35000610351562,160.0500030517578,158.1199951171875,159.6999969482422,159.27133178710938,152600
2024-10-10,158.0500030517578,159.3800048828125,158.0500030517578,159.22000122070312,158.79263305664062,168500
2024-10-11,160.94000244140625,161.9199981689453,160.35000610351562,161.5500030517578,161.1163787841797,194400
2024-10-14,164.99000549316406,167.75999450683594,163.4600067138672,167.19000244140625,166.74124145507812,469700
2024-10-15,167.32000732421875,169.66000366210938,166.49000549316406,168.67999267578125,168.2272186279297,397300
2024-10-16,168.6999969482422,169.1999969482422,165.9199981689453,166.0399932861328,165.5943145751953,330000
2024-10-17,166.97999572753906,168.32000732421875,166.52000427246094,167.88999938964844,167.43934631347656,238200
2024-10-18,169.10000610351562,169.10000610351562,167.77999877929688,168.6300048828125,168.1773681640625,171500
2024-10-21,168.47000122070312,168.49000549316406,166.3000030517578,166.3300018310547,165.883544921875,217900
2024-10-22,165.72000122070312,166.3699951171875,164.80999755859375,165.80999755859375,165.36492919921875,228500
2024-10-23,166.50999450683594,167.97999572753906,166.16000366210938,167.64999389648438,167.1999969482422,318100
2024-10-24,168.32000732421875,168.3300018310547,166.14999389648438,166.5500030517578,166.5500030517578,547300
2024-10-25,168.9199981689453,169.85000610351562,164.61000061035156,168.91000366210938,168.91000366210938,518900
2024-10-28,169.89999389648438,171.41000366210938,168.75999450683594,169.10000610351562,169.10000610351562,350000
2024-10-29,169.02999877929688,169.49000549316406,167.63999938964844,168.6999969482422,168.6999969482422,338100
2024-10-30,168.35000610351562,170.1999969482422,168.1199951171875,169.02999877929688,169.02999877929688,290300
2024-10-31,169.08999633789062,170.27999877929688,167.86000061035156,167.91000366210938,167.91000366210938,329900
2024-11-01,168.10000610351562,170.99000549316406,167.6199951171875,169.41000366210938,169.41000366210938,316300
2024-11-04,169.6300048828125,170.57000732421875,168.17999267578125,168.25999450683594,168.25999450683594,191800
2024-11-05,167.74000549316406,170.36000061035156,167.74000549316406,170.30999755859375,170.30999755859375,206200
2024-11-06,175.14999389648438,175.14999389648438,172.13999938964844,173.16000366210938,173.16000366210938,264100
2024-11-07,174.1999969482422,175.4600067138672,173.5399932861328,174.7100067138672,174.7100067138672,412300
2024-11-08,174.6999969482422,177.83999633789062,174.49000549316406,175.75999450683594,175.75999450683594,309200
2024-11-11,176.32000732421875,178.02999877929688,175.89999389648438,176.14999389648438,176.14999389648438,189100
2024-11-12,176.64999389648438,177.24000549316406,174.9499969482422,175.6999969482422,175.6999969482422,179800
2024-11-13,175.5,176.38999938964844,175.0500030517578,175.5,175.5,168400
2024-11-14,175.14999389648438,175.7899932861328,173.91000366210938,174.10000610351562,174.10000610351562,198200
2024-11-15,172.97000122070312,173.75999450683594,166.1699981689453,166.49000549316406,166.49000549316406,620500
2024-11-18,166.38999938964844,167.82000732421875,164.4949951171875,166.69000244140625,166.69000244140625,384407
